time (s)	det(V)
1596.257860	0.169069	
1596.259862	0.158955	
1596.261862	0.153643	
1596.263865	0.150660	
1596.265865	0.147085	
1596.267866	0.142708	
1596.269865	0.139016	
1596.271865	0.135538	
1596.273866	0.131718	
1596.277875	0.126559	
1596.281876	0.118956	
1596.283878	0.114009	
1596.285877	0.111973	
1596.287877	0.109329	
1596.289878	0.106202	
1596.291877	0.102922	
1596.293877	0.100126	
1596.297877	0.096088	
1596.301878	0.092610	
1596.303878	0.089786	
1596.305878	0.088160	
1596.307878	0.085552	
1596.331795	0.082838	
1596.333797	0.078107	
1596.337797	0.076159	
1596.339797	0.070927	
1596.341797	0.066080	
1596.343797	0.062021	
1596.345797	0.057273	
1596.349795	0.053728	
1596.351797	0.042998	
1596.353797	0.039537	
1596.357797	0.035606	
1596.359797	0.026226	
1596.361798	0.022984	
1596.363798	0.018258	
1596.365797	0.013898	
1596.369796	0.009711	
1596.371797	0.000674	
1596.373797	-0.006017	
1596.377796	-0.010358	
1596.379796	-0.016695	
1596.381796	-0.019541	
1596.383798	-0.021829	
1596.385797	-0.026290	
1596.389796	-0.029704	
1596.391797	-0.036407	
1596.393797	-0.040254	
1596.397796	-0.041893	
1596.399796	-0.044463	
1596.401797	-0.046516	
1596.403797	-0.046859	
1596.405798	-0.049287	
1596.409799	-0.051097	
1596.411801	-0.055340	
1596.413802	-0.056562	
1596.417800	-0.056505	
1596.419800	-0.057087	
1596.421800	-0.057138	
1596.423802	-0.057704	
1596.425801	-0.059144	
1596.429798	-0.060554	
1596.431802	-0.062782	
1596.433801	-0.064439	
1596.437801	-0.064394	
1596.439801	-0.065944	
1596.441801	-0.067554	
1596.443801	-0.068601	
1596.445801	-0.071321	
1596.449798	-0.073144	
1596.451801	-0.078563	
1596.453803	-0.081828	
1596.457800	-0.084355	
1596.459801	-0.089900	
1596.461801	-0.093698	
1596.463800	-0.096917	
1596.465802	-0.101452	
1596.469799	-0.105851	
1596.471801	-0.116766	
1596.473801	-0.122713	
1596.477800	-0.128026	
1596.479801	-0.138829	
1596.481801	-0.144248	
1596.483802	-0.151014	
1596.485802	-0.157732	
1596.489798	-0.164201	
1596.491802	-0.179616	
1596.493802	-0.187088	
1596.497804	-0.194420	
1596.499806	-0.207038	
1596.501805	-0.215146	
1596.503805	-0.219887	
1596.505804	-0.226835	
1596.509804	-0.235498	
1596.511806	-0.252504	
1596.513804	-0.258545	
1596.517805	-0.265511	
1596.519806	-0.277185	
1596.521805	-0.282960	
1596.523804	-0.288329	
1596.525804	-0.294767	
1596.529804	-0.301278	
1596.531805	-0.313987	
1596.533807	-0.318861	
1596.537805	-0.323390	
1596.539806	-0.332082	
1596.541805	-0.337377	
1596.543805	-0.340416	
1596.545805	-0.345443	
1596.547806	-0.348132	
1596.549806	-0.353399	
1596.551805	-0.357028	
1596.553808	-0.359588	
1596.557807	-0.361152	
1596.559808	-0.367979	
1596.561807	-0.371421	
1596.563807	-0.373659	
1596.565808	-0.377218	
1596.567807	-0.381075	
1596.569806	-0.382779	
1596.573805	-0.385128	
1596.577805	-0.396169	
1596.579807	-0.402739	
1596.581807	-0.407133	
1596.583811	-0.409249	
1596.585807	-0.413499	
1596.587810	-0.415861	
1596.589810	-0.420393	
1596.591810	-0.427757	
1596.593809	-0.434536	
1596.597810	-0.438510	
1596.599811	-0.454079	
1596.601811	-0.460734	
1596.603811	-0.466171	
1596.605810	-0.473900	
1596.607810	-0.484504	
1596.609811	-0.490981	
1596.611811	-0.498242	
1596.613810	-0.508956	
1596.615819	-0.520123	
1596.619821	-0.528046	
1596.621820	-0.544995	
1596.623819	-0.554975	
1596.625821	-0.563163	
1596.627820	-0.573045	
1596.629820	-0.581977	
1596.631820	-0.591306	
1596.635818	-0.601520	
1596.639818	-0.626616	
1596.641821	-0.634437	
1596.643820	-0.640750	
1596.645821	-0.645844	
1596.647821	-0.653488	
1596.649821	-0.660303	
1596.653819	-0.664478	
1596.657818	-0.673173	
1596.659821	-0.681623	
1596.661822	-0.680759	
1596.663821	-0.683678	
1596.665820	-0.687335	
1596.667821	-0.689014	
1596.669821	-0.685081	
1596.671820	-0.685352	
1596.675821	-0.688587	
1596.679822	-0.684451	
1596.681820	-0.682528	
1596.683821	-0.679891	
1596.685819	-0.673981	
1596.687821	-0.669657	
1596.689820	-0.668625	
1596.691818	-0.668980	
1596.695821	-0.663468	
1596.699820	-0.654844	
1596.701821	-0.645485	
1596.703819	-0.636168	
1596.705820	-0.633371	
1596.707821	-0.632741	
1596.709821	-0.626181	
1596.713819	-0.619201	
1596.717820	-0.616930	
1596.719821	-0.603484	
1596.721820	-0.599137	
1596.723820	-0.600414	
1596.725821	-0.596494	
1596.727821	-0.591090	
1596.729821	-0.585719	
1596.731819	-0.588052	
1596.735826	-0.588670	
1596.739827	-0.575661	
1596.741827	-0.576291	
1596.743827	-0.568959	
1596.745827	-0.563767	
1596.747827	-0.564763	
1596.749826	-0.564319	
1596.753824	-0.557642	
1596.757824	-0.549527	
1596.759827	-0.541762	
1596.761825	-0.531051	
1596.763826	-0.528092	
1596.765827	-0.524822	
1596.767827	-0.517090	
1596.769826	-0.507626	
1596.771826	-0.502800	
1596.775836	-0.500435	
1596.777834	-0.483837	
1596.779833	-0.477188	
1596.781839	-0.470369	
1596.783848	-0.463857	
1596.785851	-0.452516	
1596.787853	-0.443482	
1596.789852	-0.436407	
1596.791854	-0.429826	
1596.793853	-0.422113	
1596.797854	-0.413622	
1596.799854	-0.398834	
1596.801855	-0.386462	
1596.803855	-0.372965	
1596.805855	-0.362014	
1596.807855	-0.353551	
1596.809853	-0.340888	
1596.811855	-0.328472	
1596.813854	-0.318840	
1596.815854	-0.310973	
1596.819855	-0.299157	
1596.821857	-0.274684	
1596.823859	-0.266933	
1596.825855	-0.257375	
1596.827857	-0.246735	
1596.829857	-0.237745	
1596.831857	-0.229476	
1596.835855	-0.222384	
1596.839855	-0.202052	
1596.841856	-0.190709	
1596.843857	-0.181038	
1596.845857	-0.170561	
1596.847856	-0.163952	
1596.849857	-0.160292	
1596.851856	-0.152156	
1596.853856	-0.140111	
1596.857855	-0.133550	
1596.861856	-0.121887	
1596.863857	-0.101120	
1596.865857	-0.096313	
1596.867857	-0.089434	
1596.869858	-0.077347	
1596.871856	-0.068371	
1596.873857	-0.065762	
1596.877866	-0.059102	
1596.881868	-0.041790	
1596.883867	-0.029710	
1596.885865	-0.019423	
1596.887866	-0.010918	
1596.889867	-0.005885	
1596.891865	-0.000312	
1596.893866	0.007210	
1596.897865	0.016017	
1596.901867	0.028168	
1596.903867	0.049614	
1596.905867	0.057835	
1596.907866	0.063796	
1596.909867	0.071472	
1596.911866	0.083715	
1596.913866	0.093148	
1596.917866	0.099024	
1596.921866	0.119988	
1596.923867	0.137296	
1596.925866	0.145418	
1596.927865	0.156499	
1596.929867	0.165479	
1596.931867	0.170888	
1596.933865	0.176853	
1596.937868	0.187617	
1596.939869	0.200747	
1596.941868	0.206405	
1596.943869	0.216846	
1596.945871	0.227050	
1596.947867	0.232375	
1596.949868	0.235604	
1596.951869	0.244343	
1596.953869	0.254301	
1596.957878	0.258658	
1596.959878	0.269429	
1596.961876	0.278265	
1596.963879	0.287137	
1596.965878	0.293001	
1596.967877	0.299271	
1596.969877	0.308560	
1596.971877	0.316222	
1596.973876	0.321376	
1596.977878	0.325456	
1596.981883	0.341905	
1596.983885	0.351390	
1596.985884	0.362448	
1596.987885	0.370877	
1596.989885	0.374403	
1596.991885	0.379780	
1596.993885	0.388684	
1596.997885	0.396372	
1597.001884	0.404431	
1597.003886	0.421495	
1597.005885	0.427895	
1597.007885	0.431933	
1597.009885	0.441739	
1597.011885	0.453040	
1597.013886	0.460136	
1597.017893	0.465270	
1597.021894	0.488932	
1597.023895	0.504108	
1597.025895	0.514661	
1597.027895	0.528045	
1597.029895	0.536706	
1597.031895	0.542885	
1597.033895	0.550402	
1597.037895	0.562464	
1597.039894	0.575621	
1597.041897	0.583294	
1597.043896	0.594295	
1597.045894	0.602222	
1597.047894	0.608157	
1597.049895	0.613108	
1597.051895	0.620040	
1597.053895	0.627801	
1597.057906	0.631405	
1597.061906	0.638297	
1597.063907	0.649024	
1597.065910	0.650430	
1597.067913	0.653102	
1597.069910	0.658078	
1597.071912	0.660364	
1597.073911	0.658555	
1597.077912	0.658070	
1597.081910	0.661025	
1597.083911	0.658487	
1597.085912	0.660118	
1597.087911	0.659907	
1597.089912	0.654961	
1597.091911	0.651408	
1597.093911	0.649772	
1597.097911	0.646805	
1597.099912	0.637080	
1597.101911	0.634425	
1597.103911	0.633699	
1597.105910	0.629551	
1597.107911	0.624084	
1597.109912	0.620462	
1597.111911	0.617300	
1597.113912	0.613139	
1597.117909	0.607201	
1597.121911	0.602787	
1597.123911	0.595532	
1597.125912	0.594224	
1597.127911	0.592014	
1597.129911	0.588869	
1597.131911	0.585543	
1597.133912	0.583074	
1597.137910	0.581200	
1597.141911	0.575452	
1597.143912	0.573872	
1597.145911	0.572631	
1597.147912	0.570217	
1597.149913	0.568751	
1597.151912	0.567726	
1597.155915	0.565638	
1597.157917	0.559230	
1597.161917	0.557999	
1597.163917	0.554249	
1597.165917	0.552714	
1597.167918	0.550402	
1597.169917	0.547989	
1597.171918	0.544871	
1597.175915	0.540728	
1597.179915	0.533191	
1597.181917	0.524926	
1597.183917	0.521563	
1597.185916	0.517787	
1597.187917	0.512295	
1597.189917	0.506386	
1597.191916	0.500526	
1597.193917	0.493758	
1597.197916	0.486241	
1597.201916	0.473191	
1597.203918	0.460528	
1597.205916	0.453167	
1597.207919	0.444268	
1597.209917	0.436832	
1597.211917	0.428333	
1597.213917	0.419983	
1597.217918	0.412792	
1597.221916	0.400755	
1597.223917	0.384148	
1597.225917	0.377455	
1597.227918	0.367836	
1597.229917	0.358872	
1597.231917	0.351006	
1597.233917	0.342883	
1597.237919	0.334309	
1597.241919	0.318024	
1597.243919	0.304200	
1597.245919	0.297047	
1597.247919	0.289823	
1597.249920	0.284373	
1597.251919	0.278064	
1597.255919	0.270640	
1597.257919	0.258407	
1597.261918	0.253629	
1597.263920	0.243597	
1597.265919	0.240317	
1597.267919	0.236265	
1597.269919	0.232134	
1597.271920	0.227795	
1597.275918	0.223996	
1597.279917	0.215978	
1597.281919	0.210280	
1597.283919	0.209461	
1597.285918	0.207003	
1597.287919	0.204077	
1597.289919	0.201322	
1597.291919	0.200204	
1597.295917	0.197047	
1597.299918	0.191430	
1597.301919	0.187126	
1597.303920	0.186247	
1597.305920	0.184588	
1597.307920	0.181692	
1597.309919	0.179671	
1597.311919	0.176337	
1597.313919	0.173188	
1597.317921	0.170221	
1597.321921	0.164016	
1597.323921	0.159111	
1597.325924	0.157382	
1597.327928	0.151938	
1597.329930	0.147361	
1597.331931	0.144750	
1597.335930	0.140450	
1597.337930	0.130925	
1597.341931	0.126397	
1597.343931	0.118139	
1597.345929	0.113369	
1597.347931	0.109229	
1597.349931	0.104666	
1597.351931	0.099462	
1597.355928	0.093464	
1597.376356	0.061546	
1597.378358	0.057121	
1597.380358	0.054746	
1597.382357	0.049635	
1597.384357	0.044482	
1597.386358	0.040514	
1597.390361	0.033400	
1597.394360	0.022960	
1597.396362	0.014275	
1597.398361	0.010835	
1597.400361	0.006245	
1597.402361	0.001665	
1597.404360	-0.001225	
1597.408360	-0.006820	
1597.412359	-0.014763	
1597.414362	-0.020222	
1597.416362	-0.020786	
1597.418362	-0.022362	
1597.420362	-0.025002	
1597.422361	-0.027712	
1597.424362	-0.028935	
1597.426361	-0.029066	
1597.430360	-0.033875	
1597.434360	-0.035635	
1597.436362	-0.035477	
1597.438361	-0.036148	
1597.440362	-0.036320	
1597.442363	-0.036932	
1597.444360	-0.037533	
1597.446361	-0.039257	
1597.450362	-0.039491	
1597.454362	-0.040847	
1597.456364	-0.040187	
1597.458365	-0.040170	
1597.460363	-0.041873	
1597.462363	-0.043957	
1597.464364	-0.044564	
1597.466364	-0.045597	
1597.470364	-0.048360	
1597.474363	-0.053042	
1597.476364	-0.055948	
1597.478363	-0.059481	
1597.480364	-0.063284	
1597.482363	-0.066147	
1597.484363	-0.069621	
1597.488361	-0.074015	
1597.492361	-0.085107	
1597.494364	-0.094262	
1597.496362	-0.100113	
1597.498363	-0.104045	
1597.500363	-0.109569	
1597.502363	-0.116089	
1597.504364	-0.123019	
1597.506363	-0.129664	
1597.510364	-0.136814	
1597.512364	-0.151728	
1597.514363	-0.157852	
1597.516366	-0.163783	
1597.518364	-0.170099	
1597.520364	-0.177214	
1597.522364	-0.184986	
1597.524364	-0.191697	
1597.526363	-0.197165	
1597.530363	-0.207321	
1597.532363	-0.220687	
1597.534363	-0.226382	
1597.536364	-0.231889	
1597.538363	-0.238261	
1597.540366	-0.244057	
1597.542362	-0.248751	
1597.544366	-0.255557	
1597.546366	-0.259407	
1597.548368	-0.267910	
1597.552376	-0.272223	
1597.554376	-0.280718	
1597.556375	-0.283521	
1597.558375	-0.288316	
1597.560376	-0.290724	
1597.562375	-0.295338	
1597.566373	-0.300579	
1597.568376	-0.304588	
1597.572375	-0.308135	
1597.574374	-0.311824	
1597.576376	-0.313955	
1597.578375	-0.316123	
1597.580376	-0.318208	
1597.582376	-0.319717	
1597.584376	-0.322581	
1597.586375	-0.324716	
1597.588374	-0.328531	
1597.592385	-0.331876	
1597.594385	-0.336697	
1597.596385	-0.340019	
1597.598384	-0.342336	
1597.600385	-0.345127	
1597.602386	-0.350023	
1597.604386	-0.352779	
1597.606385	-0.357472	
1597.608386	-0.364722	
1597.610389	-0.370382	
1597.614388	-0.381222	
1597.616388	-0.385552	
1597.618386	-0.394376	
1597.620387	-0.397342	
1597.622387	-0.405960	
1597.624387	-0.412241	
1597.628385	-0.417671	
1597.630387	-0.436357	
1597.632385	-0.443536	
1597.634386	-0.453395	
1597.636385	-0.461467	
1597.638388	-0.471154	
1597.640386	-0.481389	
1597.642386	-0.492510	
1597.644386	-0.502218	
1597.648385	-0.512451	
1597.650385	-0.534664	
1597.654386	-0.544093	
1597.656387	-0.562562	
1597.658387	-0.571499	
1597.660387	-0.581577	
1597.662386	-0.590867	
1597.664387	-0.599172	
1597.668384	-0.608006	
1597.670387	-0.621882	
1597.674386	-0.628221	
1597.676386	-0.640539	
1597.678388	-0.644852	
1597.680387	-0.649008	
1597.682387	-0.654138	
1597.684387	-0.656535	
1597.686387	-0.658807	
1597.690386	-0.661267	
1597.692387	-0.662622	
1597.694386	-0.663178	
1597.696387	-0.661270	
1597.700385	-0.659578	
1597.702387	-0.656736	
1597.704386	-0.653848	
1597.708385	-0.651955	
1597.710387	-0.647515	
1597.714386	-0.644091	
1597.716387	-0.636774	
1597.718387	-0.631844	
1597.720386	-0.625530	
1597.722386	-0.621890	
1597.724388	-0.618134	
1597.726388	-0.615303	
1597.730386	-0.612096	
1597.732387	-0.606026	
1597.734386	-0.604358	
1597.736390	-0.597505	
1597.738387	-0.593304	
1597.740386	-0.592290	
1597.742386	-0.591377	
1597.744386	-0.588051	
1597.746386	-0.582868	
1597.748390	-0.584048	
1597.752387	-0.585574	
1597.754389	-0.576196	
1597.756389	-0.576187	
1597.758388	-0.578366	
1597.760388	-0.575175	
1597.762389	-0.571664	
1597.764389	-0.571590	
1597.766387	-0.574816	
1597.768388	-0.573094	
1597.770393	-0.569788	
1597.774386	-0.570091	
1597.776389	-0.569875	
1597.778388	-0.564476	
1597.780389	-0.563352	
1597.782388	-0.563841	
1597.784389	-0.561474	
1597.786389	-0.556156	
1597.790387	-0.552620	
1597.794386	-0.552538	
1597.796389	-0.539482	
1597.798388	-0.535375	
1597.800388	-0.534131	
1597.802389	-0.525326	
1597.804388	-0.515905	
1597.806389	-0.510942	
1597.810387	-0.508609	
1597.814386	-0.487743	
1597.816388	-0.473445	
1597.818390	-0.461869	
1597.820390	-0.447523	
1597.822388	-0.437642	
1597.824389	-0.433281	
1597.826389	-0.422177	
1597.828388	-0.411772	
1597.830390	-0.404255	
1597.834395	-0.398470	
1597.836395	-0.375472	
1597.838396	-0.362226	
1597.840394	-0.355864	
1597.842394	-0.347107	
1597.844396	-0.335269	
1597.846395	-0.322785	
1597.848394	-0.313312	
1597.850396	-0.308228	
1597.852398	-0.296200	
1597.856405	-0.283624	
1597.858406	-0.270693	
1597.860409	-0.259413	
1597.862405	-0.247597	
1597.864407	-0.239129	
1597.866407	-0.233212	
1597.868407	-0.224274	
1597.872404	-0.211558	
1597.876405	-0.199441	
1597.878406	-0.182507	
1597.880407	-0.172085	
1597.882407	-0.168472	
1597.884406	-0.163637	
1597.886408	-0.152931	
1597.888407	-0.144411	
1597.890407	-0.142138	
1597.894414	-0.138757	
1597.898416	-0.120048	
1597.900417	-0.111083	
1597.902416	-0.100818	
1597.904417	-0.091836	
1597.906417	-0.087182	
1597.908417	-0.082561	
1597.912415	-0.075599	
1597.914416	-0.060331	
1597.918417	-0.055619	
1597.920419	-0.036737	
1597.922416	-0.028326	
1597.924417	-0.023451	
1597.926416	-0.015704	
1597.928416	-0.003896	
1597.930415	0.004931	
1597.934416	0.010785	
1597.936418	0.029998	
1597.938416	0.039946	
1597.940419	0.046423	
1597.942419	0.053661	
1597.944416	0.065374	
1597.946417	0.074558	
1597.948417	0.083074	
1597.950416	0.089492	
1597.954415	0.099512	
1597.958416	0.119909	
1597.960417	0.136851	
1597.962416	0.148440	
1597.964416	0.155931	
1597.966417	0.161488	
1597.968416	0.169570	
1597.970415	0.179655	
1597.972416	0.187605	
1597.978416	0.198497	
1597.980417	0.218142	
1597.982418	0.222363	
1597.984417	0.227729	
1597.986417	0.236935	
1597.988417	0.246599	
1597.990416	0.249218	
1597.994417	0.252915	
1597.996421	0.271344	
1597.998416	0.276071	
1598.000416	0.280438	
1598.002416	0.290033	
1598.004418	0.301250	
1598.006417	0.306232	
1598.008417	0.309676	
1598.010418	0.318281	
1598.014415	0.327452	
1598.018416	0.338769	
1598.020418	0.359544	
1598.022417	0.369415	
1598.024417	0.373719	
1598.026423	0.382172	
1598.028426	0.394373	
1598.030426	0.404348	
1598.034425	0.408583	
1598.038426	0.424732	
1598.040425	0.444507	
1598.042428	0.452857	
1598.044425	0.465683	
1598.046425	0.477988	
1598.048425	0.487263	
1598.050426	0.493804	
1598.054437	0.505542	
1598.058436	0.527868	
1598.060438	0.548311	
1598.062438	0.561359	
1598.064438	0.570875	
1598.066437	0.578431	
1598.068438	0.588800	
1598.070437	0.601237	
1598.074436	0.608267	
1598.076439	0.622422	
1598.078437	0.632305	
1598.080438	0.642188	
1598.082438	0.646821	
1598.084437	0.651593	
1598.086436	0.659529	
1598.088438	0.666833	
1598.090436	0.668193	
1598.094436	0.668199	
1598.098438	0.677160	
1598.100437	0.678313	
1598.102438	0.680338	
1598.104438	0.682960	
1598.106436	0.681959	
1598.108438	0.678783	
1598.110438	0.676010	
1598.114440	0.675408	
1598.118441	0.669487	
1598.120442	0.665588	
1598.122443	0.663803	
1598.124442	0.657850	
1598.126441	0.653481	
1598.128442	0.650801	
1598.130442	0.648077	
1598.134440	0.642749	
1598.138441	0.636670	
1598.140440	0.632385	
1598.142441	0.627980	
1598.144442	0.626372	
1598.146441	0.625428	
1598.148440	0.623072	
1598.152440	0.618586	
1598.156439	0.617077	
1598.158441	0.612445	
1598.160442	0.612283	
1598.162441	0.614058	
1598.164440	0.613135	
1598.166442	0.611021	
1598.168442	0.611150	
1598.170441	0.612517	
1598.174441	0.611625	
1598.176442	0.609061	
1598.178441	0.609532	
1598.180441	0.610391	
1598.182441	0.609914	
1598.184440	0.609170	
1598.186441	0.609706	
1598.188441	0.610147	
1598.190441	0.607342	
1598.194439	0.603889	
1598.198447	0.601179	
1598.200450	0.595336	
1598.202450	0.593459	
1598.204448	0.591083	
1598.206447	0.586105	
1598.208450	0.579998	
1598.210449	0.573171	
1598.212449	0.567134	
1598.216448	0.561411	
1598.218450	0.545976	
1598.220449	0.540728	
1598.222449	0.533781	
1598.224450	0.523363	
1598.226450	0.514880	
1598.228449	0.505765	
1598.230449	0.496659	
1598.232449	0.485016	
1598.236449	0.474828	
1598.238450	0.456215	
1598.240449	0.445713	
1598.242450	0.435431	
1598.244450	0.425295	
1598.246450	0.416449	
1598.248450	0.409395	
1598.250450	0.401219	
1598.252449	0.389701	
1598.256449	0.380948	
1598.258449	0.360559	
1598.260449	0.351513	
1598.262450	0.343839	
1598.264450	0.335974	
1598.266449	0.326783	
1598.268450	0.318966	
1598.272447	0.312403	
1598.276448	0.296049	
1598.278449	0.283483	
1598.280453	0.279495	
1598.282456	0.274981	
1598.284452	0.269511	
1598.286453	0.264970	
1598.288454	0.261878	
1598.292451	0.257904	
1598.296451	0.247863	
1598.298453	0.244767	
1598.300453	0.242076	
1598.302453	0.239687	
1598.304454	0.238060	
1598.306453	0.236767	
1598.308452	0.234009	
1598.310453	0.230952	
1598.314451	0.229250	
1598.318454	0.226068	
1598.320453	0.225139	
1598.322453	0.223778	
1598.324454	0.220722	
1598.326453	0.218901	
1598.328453	0.217317	
1598.330453	0.214294	
1598.334452	0.210992	
1598.336454	0.206592	
1598.338453	0.203379	
1598.340453	0.200388	
1598.342455	0.198477	
1598.344453	0.194643	
1598.346453	0.189804	
1598.348453	0.187161	
1598.350453	0.183005	
1598.354453	0.176439	
1598.358452	0.168285	
1598.360454	0.158240	
1598.364450	0.148487	
1598.366454	0.143218	
1598.368456	0.136869	
1598.372456	0.130849	
1598.374458	0.118125	
1598.378457	0.112591	
1598.380457	0.102238	
1598.382457	0.096898	
1598.384457	0.090754	
1598.386457	0.085724	
1598.388458	0.080174	
1598.392455	0.074083	
1598.412939	0.045788	
1598.414937	0.043365	
1598.416938	0.043433	
1598.418936	0.039685	
1598.420937	0.034376	
1598.422936	0.034133	
1598.426937	0.029875	
1598.430937	0.021627	
1598.432937	0.020293	
1598.434937	0.017634	
1598.436938	0.016623	
1598.438937	0.015017	
1598.440937	0.012304	
1598.442937	0.010990	
1598.446938	0.009919	
1598.450938	0.006580	
1598.452939	0.005546	
1598.454939	0.003960	
1598.456939	0.004424	
