num crossings	time (s)	maj axis (mm)	min axis (mm)	theta (rad )	slope (V/s)
1001	1046.022470	30.170031	0.835487	1.520340	3.483406
1003	1048.091439	30.011256	0.856165	1.518078	3.398410
1007	1052.241587	29.843022	0.863516	1.520620	3.760519
1009	1054.318372	29.763320	0.881331	1.523292	3.453319
1011	1056.395542	29.734189	0.892010	1.524347	3.328631
1013	1058.472866	29.705818	0.876899	1.525022	3.468537
1015	1060.553053	29.579420	0.878503	1.525629	3.289295
1017	1062.636675	29.457059	0.856736	1.524780	3.372194
1019	1064.722516	29.510733	0.867706	1.518608	3.389781
1021	1066.805209	29.623909	0.903267	1.513132	3.491850
1025	1070.946433	29.831186	0.929840	1.516556	3.202879
1027	1073.009700	29.778297	0.932780	1.529284	3.105777
1029	1075.079999	29.462876	0.907607	1.535695	3.433975
1033	1079.250149	29.141743	0.853245	1.522488	3.299701
1035	1081.336243	29.238533	0.918904	1.517022	3.371415
1037	1083.414359	29.324432	0.933015	1.513183	3.266063
1041	1087.559429	29.411037	0.936354	1.516692	3.367521
1043	1089.632026	29.358508	0.922480	1.517365	3.495663
1045	1091.705413	29.255825	0.915857	1.518345	3.451168
1047	1093.776745	29.232983	0.911379	1.518278	3.501653
1049	1095.855081	29.126007	0.923672	1.519110	3.237994
1051	1097.934236	29.019989	0.932309	1.518441	3.440781
1053	1100.016582	28.950239	0.952542	1.521313	3.252466
1055	1102.096316	28.931204	0.973997	1.525729	3.395085
1057	1104.176187	28.917027	0.973651	1.530133	3.199259
1059	1106.252031	29.032442	0.965902	1.532585	3.241258
1061	1108.318911	29.167995	0.913347	1.526426	3.454452
1063	1110.383453	29.170631	0.900999	1.519130	3.278525
1065	1112.450784	29.000344	0.912452	1.510754	3.174154
1067	1114.524522	28.794697	0.961594	1.507946	3.415183
1071	1118.693704	28.569729	0.984363	1.516785	3.228379
1073	1120.778173	28.561190	0.979202	1.524090	3.300631
1075	1122.860612	28.628646	0.995343	1.527918	3.093544
1077	1124.936345	28.635305	0.982441	1.527001	3.210440
1079	1127.008878	28.715810	0.980358	1.526161	3.249249
1081	1129.080578	28.706367	0.965507	1.523491	3.097580
1083	1131.151414	28.663114	0.944742	1.520943	3.201214
1087	1135.301081	28.491277	0.962261	1.519724	3.165068
1089	1137.381454	28.436231	0.966853	1.519998	3.181664
1091	1139.459445	28.397945	0.981007	1.519424	3.115706
1095	1143.618849	28.286404	1.003156	1.515002	3.036839
1097	1145.695554	28.304308	0.991070	1.510466	3.215993
1099	1147.770620	28.383168	1.003540	1.509428	2.987823
1103	1151.906733	28.464367	0.998016	1.515118	3.061778
1105	1153.974043	28.400295	0.997096	1.523089	3.165338
1107	1156.043537	28.225481	0.997963	1.527462	3.222022
1109	1158.123360	28.030554	0.976815	1.525962	3.083150
1113	1162.291028	27.920576	0.971765	1.517868	3.048086
1115	1164.373468	27.946058	1.010781	1.516362	3.114849
1117	1166.453681	27.932492	1.023539	1.514852	3.059444
1121	1170.607494	27.920480	1.031367	1.513640	3.123871
1123	1172.685938	27.863169	1.038064	1.515128	3.033567
1125	1174.761679	27.845363	1.029411	1.516097	2.978496
1129	1178.914885	27.703601	1.033416	1.520334	3.134071
1131	1180.990300	27.754172	1.032682	1.521947	2.932223
1133	1183.062191	27.819475	1.015851	1.523117	3.108044
1137	1187.201706	27.869783	0.961930	1.516261	3.105665
1139	1189.269597	27.833153	0.934523	1.510348	2.912061
1141	1191.338956	27.714488	0.974814	1.505961	2.959523
1145	1195.492140	27.511751	0.992212	1.506641	3.053672
1147	1197.574824	27.384828	1.010324	1.508253	2.920243
1149	1199.659354	27.366435	1.022726	1.511109	2.962244
1151	1201.741964	27.335535	1.014623	1.516602	3.019840
1153	1203.818196	27.417165	1.019620	1.517276	2.974996
1155	1205.899880	27.363065	1.033726	1.518698	2.951334
1157	1207.975867	27.322203	1.033170	1.518728	2.732187
1159	1210.051368	27.315235	1.032470	1.517615	2.881442
1163	1214.200227	27.255883	1.034995	1.515306	2.889609
1165	1216.278560	27.235337	1.035150	1.513563	2.916135
1167	1218.354694	27.164192	1.032541	1.510992	2.862975
1171	1222.502794	27.203333	1.033447	1.506889	2.970874
1173	1224.575975	27.232001	1.033898	1.506306	2.891403
1175	1226.644631	27.283495	1.026732	1.505672	3.029499
1179	1230.785239	27.233719	1.027961	1.514737	2.876210
1181	1232.854134	27.111798	1.040784	1.518292	2.856839
1183	1234.929265	26.981728	1.026690	1.519690	2.974880
1185	1237.005793	26.884569	1.017595	1.517378	2.879522
1187	1239.088564	26.807125	1.014250	1.515301	2.974829
1189	1241.171032	26.772740	1.010035	1.513664	2.959355
1191	1243.252590	26.752269	1.014874	1.511901	2.773547
1195	1247.413868	26.758506	1.059622	1.512920	2.539185
1197	1249.487982	26.802403	1.057882	1.512637	3.011470
1199	1251.567798	26.698616	1.070961	1.514759	2.764787
1203	1255.717988	26.740838	1.069463	1.516198	2.917001
1205	1257.789881	26.742138	1.052458	1.515962	2.701457
1207	1259.863584	26.737488	1.041838	1.515197	2.754712
1211	1264.000651	26.729200	1.021510	1.509341	2.704821
1213	1266.074446	26.668929	1.028384	1.505222	2.869157
1215	1268.143563	26.548743	1.029494	1.502242	2.761586
1219	1272.300136	26.404252	1.055957	1.502179	2.747135
1221	1274.378907	26.332511	1.065293	1.503782	2.671720
1223	1276.462013	26.321810	1.066004	1.505298	2.889548
1225	1278.543492	26.277775	1.063669	1.506127	2.730697
1227	1280.622566	26.269618	1.069670	1.507985	2.757192
1229	1282.701842	26.247147	1.080295	1.508562	2.727241
1231	1284.781538	26.250185	1.083036	1.511209	2.783812
1233	1286.858917	26.210352	1.097956	1.510816	2.847899
1235	1288.934505	26.206743	1.099305	1.510112	2.787328
1239	1293.088690	26.177564	1.109643	1.508248	2.758302
1241	1295.162501	26.171999	1.108458	1.506590	2.683289
1243	1297.236316	26.167403	1.103577	1.505307	2.741238
1247	1301.380178	26.193026	1.096028	1.504332	2.592522
1249	1303.450173	26.176971	1.102407	1.506616	2.536816
1251	1305.521107	26.142592	1.104614	1.510161	2.804676
1253	1307.590604	26.073198	1.097311	1.513455	2.597275
1255	1309.663752	26.000540	1.107001	1.514775	2.708861
1257	1311.740293	25.900547	1.106304	1.514536	2.660069
1259	1313.818491	25.809210	1.096961	1.514631	2.715880
1261	1315.898228	25.836250	1.106251	1.510129	2.629192
1263	1317.979212	25.740641	1.103808	1.511560	2.674893
1265	1320.060531	25.761501	1.107392	1.509889	2.684585
1267	1322.138184	25.742029	1.106309	1.509253	2.833126
1271	1326.296639	25.731485	1.135136	1.511562	2.567780
1273	1328.371935	25.712067	1.129043	1.512182	2.596142
1275	1330.448174	25.732129	1.135749	1.512042	2.609354
1279	1334.592341	25.698927	1.109899	1.509785	2.572264
1281	1336.662732	25.701750	1.115492	1.507580	2.466306
1283	1338.735081	25.671069	1.092774	1.505244	2.533504
