time (s)	det(V)
3013.865784	0.276162	
3013.867785	0.273144	
3013.869784	0.269108	
3013.871784	0.265552	
3013.873784	0.262120	
3013.875785	0.259309	
3013.877785	0.255308	
3013.881790	0.251229	
3013.885791	0.245538	
3013.887790	0.240180	
3013.889791	0.237946	
3013.891791	0.236058	
3013.893791	0.232988	
3013.895791	0.230413	
3013.897791	0.227872	
3013.901793	0.224594	
3013.903794	0.220491	
3013.905792	0.217207	
3013.907795	0.216212	
3013.909796	0.214535	
3013.911794	0.211458	
3013.913795	0.208561	
3013.915795	0.207056	
3013.917795	0.204998	
3013.921794	0.201503	
3013.925794	0.197816	
3013.927795	0.193609	
3013.929795	0.191596	
3013.931795	0.189509	
3013.933795	0.186735	
3013.935795	0.184483	
3013.937798	0.181953	
3013.941796	0.179672	
3013.943798	0.173536	
3013.945795	0.171225	
3013.947797	0.168948	
3013.949797	0.165642	
3013.951798	0.163178	
3013.953797	0.159615	
3013.955796	0.156570	
3013.957797	0.153632	
3013.961796	0.149516	
3013.965796	0.142657	
3013.967796	0.136486	
3013.969796	0.133084	
3013.971797	0.129504	
3013.973797	0.126093	
3013.975797	0.122888	
3013.977797	0.118806	
3013.981797	0.114713	
3013.983797	0.108386	
3013.985797	0.104589	
3013.987796	0.101096	
3013.989799	0.101050	
3013.991796	0.096067	
3013.993797	0.091657	
3013.995797	0.088589	
3013.997797	0.085710	
3014.001797	0.082450	
3014.005796	0.075770	
3014.007798	0.071759	
3014.009796	0.068914	
3014.011797	0.066137	
3014.013798	0.064356	
3014.015797	0.062756	
3014.019795	0.059767	
3014.023794	0.055948	
3014.025797	0.053149	
3014.027797	0.051701	
3014.029799	0.050663	
3014.031797	0.049609	
3014.033797	0.047624	
3014.035796	0.046902	
3014.037797	0.045045	
3014.041796	0.044269	
3014.045796	0.041711	
3014.047797	0.041264	
3014.049798	0.039939	
3014.051796	0.039258	
3014.053797	0.037196	
3014.055797	0.037535	
3014.057795	0.036688	
3014.061805	0.034788	
3014.063805	0.033342	
3014.065804	0.032358	
3014.067805	0.032049	
3014.069804	0.030783	
3014.071804	0.030382	
3014.073803	0.029548	
3014.075805	0.029130	
3014.077805	0.027148	
3014.079803	0.025820	
3014.083804	0.024750	
3014.085804	0.021924	
3014.087805	0.020369	
3014.089804	0.020008	
3014.091804	0.018614	
3014.093804	0.016237	
3014.095804	0.014549	
3014.097804	0.012973	
3014.099804	0.010487	
3014.103802	0.008119	
3014.105804	0.004257	
3014.107804	0.002962	
3014.109804	0.001292	
3014.111804	-0.001839	
3014.113804	-0.003097	
3014.115803	-0.005123	
3014.119802	-0.007560	
3014.123802	-0.012983	
3014.125804	-0.016669	
3014.127805	-0.018789	
3014.129805	-0.020384	
3014.131804	-0.022177	
3014.133804	-0.024483	
3014.135805	-0.026436	
3014.137803	-0.029641	
3014.141805	-0.030398	
3014.145804	-0.034698	
3014.147804	-0.036787	
3014.149804	-0.038275	
3014.151804	-0.040298	
3014.153804	-0.042301	
3014.155804	-0.043311	
3014.159802	-0.044589	
3014.161803	-0.048861	
3014.165803	-0.049141	
3014.167805	-0.050982	
3014.169804	-0.052383	
3014.171804	-0.052930	
3014.173804	-0.053602	
3014.175805	-0.054811	
3014.177804	-0.056769	
3014.181805	-0.057705	
3014.185804	-0.059379	
3014.187804	-0.060592	
3014.189805	-0.060791	
3014.191804	-0.061655	
3014.193803	-0.063492	
3014.195805	-0.063925	
3014.197805	-0.064971	
3014.201804	-0.066651	
3014.203804	-0.070127	
3014.205804	-0.070633	
3014.207804	-0.071367	
3014.209804	-0.073162	
3014.211804	-0.074857	
3014.213804	-0.076478	
3014.215804	-0.077669	
3014.217804	-0.079852	
3014.221804	-0.082410	
3014.225803	-0.085927	
3014.227803	-0.090795	
3014.229805	-0.092684	
3014.231805	-0.094524	
3014.233804	-0.097944	
3014.235804	-0.100977	
3014.237804	-0.103509	
3014.241803	-0.106434	
3014.243804	-0.112616	
3014.245805	-0.115610	
3014.247804	-0.118168	
3014.249804	-0.120468	
3014.251803	-0.124739	
3014.253804	-0.128455	
3014.255804	-0.131198	
3014.257805	-0.133947	
3014.259804	-0.138961	
3014.263811	-0.142831	
3014.265813	-0.149029	
3014.267812	-0.152109	
3014.269812	-0.155578	
3014.271812	-0.158630	
3014.273812	-0.161561	
3014.275812	-0.165085	
3014.277814	-0.168745	
3014.279812	-0.172161	
3014.281815	-0.175408	
3014.285818	-0.178998	
3014.287818	-0.184772	
3014.289818	-0.186704	
3014.291819	-0.189256	
3014.293818	-0.192431	
3014.295819	-0.195780	
3014.297818	-0.197575	
3014.301816	-0.200479	
3014.303818	-0.206565	
3014.307818	-0.208325	
3014.309818	-0.212462	
3014.311818	-0.214637	
3014.313819	-0.216761	
3014.315818	-0.218692	
3014.317818	-0.220526	
3014.319817	-0.223236	
3014.323822	-0.225702	
3014.327821	-0.229603	
3014.329821	-0.232532	
3014.331822	-0.234676	
3014.333822	-0.237399	
3014.335823	-0.239625	
3014.337822	-0.241728	
3014.339822	-0.244093	
3014.343822	-0.247069	
3014.347823	-0.252251	
3014.349822	-0.257015	
3014.351823	-0.259472	
3014.353822	-0.262660	
3014.355822	-0.266309	
3014.357822	-0.268335	
3014.359822	-0.271526	
3014.363822	-0.275963	
3014.365822	-0.281430	
3014.367822	-0.284719	
3014.369823	-0.287637	
3014.371823	-0.290761	
3014.373822	-0.293595	
3014.375822	-0.297153	
3014.377821	-0.300974	
3014.379822	-0.303686	
3014.383820	-0.308768	
3014.387822	-0.315210	
3014.389823	-0.321604	
3014.391822	-0.325885	
3014.393822	-0.328914	
3014.395822	-0.331815	
3014.397822	-0.336017	
3014.399821	-0.339136	
3014.403822	-0.341971	
3014.405823	-0.347839	
3014.407823	-0.349732	
3014.409825	-0.350185	
3014.411822	-0.351668	
3014.413821	-0.353420	
3014.415822	-0.354702	
3014.417823	-0.354608	
3014.419822	-0.354280	
3014.421823	-0.355689	
3014.425823	-0.356008	
3014.427823	-0.353657	
3014.429822	-0.352965	
3014.431822	-0.352349	
3014.433823	-0.350556	
3014.435823	-0.348459	
3014.437822	-0.347717	
3014.439822	-0.346216	
3014.441822	-0.344843	
3014.445821	-0.342441	
3014.447822	-0.339680	
3014.449821	-0.336380	
3014.451823	-0.332975	
3014.453822	-0.330984	
3014.455821	-0.329247	
3014.457822	-0.326718	
3014.461820	-0.322444	
3014.463824	-0.318001	
3014.465822	-0.315602	
3014.467822	-0.310596	
3014.469822	-0.305837	
3014.471823	-0.303902	
3014.473822	-0.300807	
3014.475823	-0.296004	
3014.477822	-0.290937	
3014.481820	-0.288716	
3014.485820	-0.283321	
3014.487822	-0.276367	
3014.489821	-0.274547	
3014.491822	-0.270763	
3014.493822	-0.266494	
3014.495822	-0.263737	
3014.497823	-0.263189	
3014.499822	-0.260957	
3014.503822	-0.257506	
3014.507823	-0.253631	
3014.509822	-0.247088	
3014.511822	-0.243133	
3014.513821	-0.241649	
3014.515822	-0.240583	
3014.517822	-0.235579	
3014.519822	-0.230725	
3014.521828	-0.229301	
3014.525832	-0.227040	
3014.527833	-0.216519	
3014.529833	-0.212928	
3014.531832	-0.210344	
3014.533832	-0.205121	
3014.535832	-0.198615	
3014.537834	-0.194804	
3014.541830	-0.192294	
3014.543832	-0.181316	
3014.545833	-0.177095	
3014.549832	-0.175296	
3014.551832	-0.163368	
3014.553832	-0.158594	
3014.555833	-0.156814	
3014.557834	-0.153033	
3014.561830	-0.146862	
3014.565830	-0.136356	
3014.567833	-0.129268	
3014.569833	-0.121468	
3014.571831	-0.119076	
3014.573832	-0.115643	
3014.575832	-0.109479	
3014.579830	-0.102369	
3014.581833	-0.096084	
3014.583832	-0.090542	
3014.585832	-0.082921	
3014.587832	-0.078860	
3014.589833	-0.075754	
3014.591832	-0.070585	
3014.593832	-0.064381	
3014.595832	-0.059609	
3014.599830	-0.057685	
3014.603830	-0.049143	
3014.605832	-0.043146	
3014.607832	-0.039814	
3014.609833	-0.034209	
3014.611834	-0.029555	
3014.613834	-0.027513	
3014.615834	-0.025428	
3014.617834	-0.020558	
3014.621832	-0.015314	
3014.625834	-0.010605	
3014.627837	0.001014	
3014.629838	0.005987	
3014.631841	0.007228	
3014.633840	0.011925	
3014.635840	0.019028	
3014.637840	0.022334	
3014.641840	0.024539	
3014.645840	0.036609	
3014.647840	0.044420	
3014.649841	0.049183	
3014.651840	0.055887	
3014.653840	0.060098	
3014.655841	0.063115	
3014.657840	0.067132	
3014.661840	0.073301	
3014.665839	0.081216	
3014.667840	0.092156	
3014.669840	0.098272	
3014.671840	0.101636	
3014.673840	0.104846	
3014.675840	0.111870	
3014.679838	0.118272	
3014.681840	0.125138	
3014.685841	0.131413	
3014.687839	0.144253	
3014.689840	0.147862	
3014.691840	0.153806	
3014.693841	0.161331	
3014.695840	0.167009	
3014.699838	0.168269	
3014.701840	0.180536	
3014.705840	0.185322	
3014.707840	0.190898	
3014.709840	0.198383	
3014.711841	0.203127	
3014.713840	0.203417	
3014.715840	0.205913	
3014.717840	0.212247	
3014.721840	0.217194	
3014.723840	0.218656	
3014.725840	0.224469	
3014.727845	0.230694	
3014.729845	0.232671	
3014.731846	0.233181	
3014.733846	0.238256	
3014.735846	0.244923	
3014.737846	0.246560	
3014.739847	0.246838	
3014.743845	0.251346	
3014.745849	0.261021	
3014.747848	0.261367	
3014.749847	0.265824	
3014.751847	0.272292	
3014.753847	0.275892	
3014.755847	0.277107	
3014.757846	0.279701	
3014.759847	0.285420	
3014.761845	0.290041	
3014.765847	0.290845	
3014.767847	0.298202	
3014.769846	0.304781	
3014.771848	0.306813	
3014.773847	0.308674	
3014.775847	0.313117	
3014.777847	0.319373	
3014.781845	0.321934	
3014.785845	0.327233	
3014.787847	0.335987	
3014.789847	0.338488	
3014.791848	0.342061	
3014.793847	0.347584	
3014.795848	0.350675	
3014.797846	0.352213	
3014.799847	0.354091	
3014.814310	0.378461	
3014.816316	0.374527	
3014.818328	0.369308	
3014.820329	0.387040	
3014.822328	0.379883	
3014.824329	0.365626	
3014.828327	0.375954	
3014.832328	0.368919	
3014.834328	0.363849	
3014.836329	0.365854	
3014.838329	0.361930	
3014.840329	0.352791	
3014.842329	0.350642	
3014.844328	0.352272	
3014.846328	0.345357	
3014.850337	0.336752	
3014.854339	0.331863	
3014.856338	0.321148	
3014.858346	0.315780	
3014.860349	0.311757	
3014.862350	0.308419	
3014.864349	0.302413	
3014.866348	0.295451	
3014.870347	0.291527	
3014.874350	0.283251	
3014.876348	0.274654	
3014.878349	0.272138	
3014.880348	0.268177	
3014.882349	0.263653	
3014.884349	0.261022	
3014.886349	0.258799	
3014.890358	0.256508	
3014.894356	0.249853	
3014.896356	0.247237	
3014.898358	0.244673	
3014.900357	0.242111	
3014.902356	0.241213	
3014.904356	0.240218	
3014.906356	0.237270	
3014.910367	0.234040	
3014.912366	0.232730	
3014.914368	0.229157	
3014.916371	0.227292	
3014.918371	0.226802	
3014.920370	0.225511	
3014.922371	0.223221	
3014.924371	0.220431	
3014.926371	0.218473	
3014.930376	0.216073	
3014.934376	0.210194	
3014.936377	0.206779	
3014.938377	0.204016	
3014.940377	0.200302	
3014.942379	0.197527	
3014.944379	0.194349	
3014.946383	0.190798	
3014.950392	0.186465	
3014.954391	0.179075	
3014.956393	0.171615	
3014.958393	0.167263	
3014.960393	0.163330	
3014.962392	0.159233	
3014.964393	0.154858	
3014.966393	0.149805	
3014.970391	0.145186	
3014.974393	0.137042	
3014.976392	0.128826	
3014.978393	0.125370	
3014.980394	0.121069	
3014.982392	0.116386	
3014.984393	0.112579	
3014.986394	0.108700	
3014.990394	0.104726	
3014.992395	0.097356	
3014.994395	0.093756	
3014.996397	0.091100	
3014.998396	0.088031	
3015.000397	0.084687	
3015.002397	0.082110	
3015.004397	0.078526	
3015.006396	0.076258	
3015.010396	0.072917	
3015.014396	0.067871	
3015.016396	0.064281	
3015.018396	0.063290	
3015.020397	0.061133	
3015.022397	0.060007	
3015.024396	0.059039	
3015.026397	0.057226	
3015.030406	0.055864	
3015.034407	0.053806	
3015.036407	0.052774	
3015.038407	0.052937	
3015.040407	0.052480	
3015.042406	0.051538	
3015.044406	0.051111	
3015.046406	0.050772	
3015.048408	0.049033	
3015.052415	0.048258	
3015.054415	0.047320	
3015.056414	0.047450	
3015.058414	0.047445	
3015.060414	0.046749	
3015.062414	0.045670	
3015.064415	0.044834	
3015.066414	0.044120	
3015.068414	0.042803	
3015.070420	0.041579	
3015.074419	0.040422	
3015.076420	0.038773	
3015.078420	0.038254	
3015.080420	0.037089	
3015.082420	0.036132	
3015.084420	0.034499	
3015.086421	0.033229	
3015.090418	0.031734	
3015.094419	0.028816	
3015.096421	0.025370	
3015.098420	0.024179	
3015.100422	0.022259	
3015.102420	0.021103	
3015.104420	0.018758	
3015.106420	0.017469	
3015.108420	0.015261	
3015.112420	0.012645	
3015.116419	0.008787	
3015.118421	0.005480	
3015.120419	0.003547	
3015.122420	0.002189	
3015.124420	0.000560	
3015.126420	-0.001320	
3015.128420	-0.003596	
3015.132420	-0.005485	
3015.134422	-0.008843	
3015.136423	-0.010080	
3015.138422	-0.010422	
3015.140420	-0.011270	
3015.142420	-0.011888	
3015.144420	-0.013724	
3015.146420	-0.015110	
3015.148420	-0.015387	
3015.152426	-0.017127	
3015.156428	-0.019382	
3015.158428	-0.019350	
3015.160428	-0.020193	
3015.162430	-0.021007	
3015.164428	-0.021599	
3015.166428	-0.021548	
3015.168428	-0.022781	
3015.170429	-0.023334	
3015.174428	-0.023396	
3015.176428	-0.023881	
3015.178430	-0.024015	
3015.180428	-0.023587	
3015.182428	-0.022944	
3015.184428	-0.024043	
3015.186428	-0.023771	
3015.188428	-0.022990	
3015.190429	-0.023971	
3015.194427	-0.023934	
3015.196429	-0.024532	
3015.198428	-0.023894	
3015.200428	-0.023841	
3015.202428	-0.024296	
3015.204428	-0.025204	
3015.206428	-0.025214	
3015.210427	-0.025308	
3015.212427	-0.029528	
3015.214427	-0.029570	
3015.216428	-0.030128	
3015.218433	-0.031593	
3015.220438	-0.032429	
3015.222439	-0.033075	
3015.224437	-0.034236	
3015.226437	-0.036540	
3015.230436	-0.037592	
3015.234436	-0.041945	
3015.236443	-0.045307	
3015.238446	-0.046711	
3015.240446	-0.047755	
3015.242446	-0.050282	
3015.244446	-0.052147	
3015.246447	-0.054442	
3015.248446	-0.056381	
3015.252444	-0.059664	
3015.256447	-0.063900	
3015.258446	-0.067724	
3015.260446	-0.069663	
3015.262448	-0.072697	
3015.264446	-0.075239	
3015.266446	-0.077124	
3015.268446	-0.080176	
3015.272445	-0.083064	
3015.276446	-0.087458	
3015.278446	-0.091084	
3015.280448	-0.094036	
3015.282446	-0.095698	
3015.284446	-0.098014	
3015.286446	-0.099956	
3015.288446	-0.101917	
3015.292446	-0.103891	
3015.296445	-0.107250	
3015.298446	-0.109619	
3015.300446	-0.111696	
3015.302446	-0.112621	
3015.304446	-0.114633	
3015.306446	-0.115057	
3015.308446	-0.116988	
3015.312446	-0.118984	
3015.314447	-0.121562	
3015.316446	-0.122890	
3015.318449	-0.123951	
3015.320450	-0.124726	
3015.322450	-0.125975	
3015.324450	-0.127720	
3015.326450	-0.129166	
3015.328451	-0.130411	
3015.332449	-0.133191	
3015.336450	-0.136584	
3015.338450	-0.139427	
3015.340450	-0.141753	
3015.342452	-0.143953	
3015.344450	-0.145970	
3015.346450	-0.148578	
3015.348450	-0.151951	
3015.350454	-0.154907	
3015.354457	-0.158034	
3015.356458	-0.164369	
3015.358458	-0.167158	
3015.360458	-0.170870	
3015.362458	-0.174686	
3015.364460	-0.178918	
3015.366458	-0.183304	
3015.368458	-0.187179	
3015.370458	-0.192492	
3015.374456	-0.196910	
3015.376460	-0.207148	
3015.378458	-0.210999	
3015.380458	-0.216720	
3015.382458	-0.222128	
3015.384458	-0.227676	
3015.386458	-0.232169	
3015.390456	-0.237122	
3015.394456	-0.249842	
3015.396458	-0.259168	
3015.398458	-0.264624	
3015.400458	-0.269897	
3015.402458	-0.274209	
3015.404458	-0.279314	
3015.406459	-0.284331	
3015.408458	-0.289689	
3015.412460	-0.294539	
3015.416460	-0.303079	
3015.418460	-0.311108	
3015.420463	-0.313389	
3015.422460	-0.316736	
3015.424460	-0.321211	
3015.426460	-0.323820	
3015.428460	-0.325927	
3015.432467	-0.329386	
3015.436468	-0.334561	
3015.438468	-0.335888	
3015.440469	-0.338391	
3015.442468	-0.339953	
3015.444468	-0.340352	
3015.446468	-0.340760	
3015.448468	-0.343670	
3015.452468	-0.345720	
3015.456467	-0.345710	
3015.458469	-0.348364	
3015.460469	-0.347708	
3015.462468	-0.348126	
3015.464468	-0.350482	
3015.466468	-0.352373	
3015.470467	-0.352107	
3015.474466	-0.353858	
3015.476468	-0.356047	
3015.478468	-0.354564	
3015.480468	-0.356251	
3015.482468	-0.358707	
3015.484468	-0.359167	
3015.486468	-0.358335	
3015.488468	-0.359497	
3015.492476	-0.362397	
3015.496475	-0.363350	
3015.500474	-0.368126	
3015.502475	-0.367373	
3015.504477	-0.369065	
3015.506476	-0.372184	
3015.510475	-0.374421	
3015.512476	-0.374816	
3015.514476	-0.377886	
3015.516476	-0.380436	
3015.518477	-0.378830	
3015.520476	-0.377624	
3015.522476	-0.378863	
3015.524476	-0.380731	
3015.526476	-0.378950	
3015.530474	-0.376208	
3015.534474	-0.377719	
3015.536476	-0.369838	
3015.538484	-0.366731	
3015.540482	-0.365899	
3015.542482	-0.362287	
3015.544482	-0.356395	
3015.546484	-0.352040	
3015.548482	-0.350921	
3015.550484	-0.347537	
3015.554484	-0.340131	
3015.556484	-0.332805	
3015.558484	-0.328265	
3015.560484	-0.321074	
3015.562484	-0.313747	
3015.564485	-0.311636	
3015.566483	-0.308515	
3015.568484	-0.300295	
3015.570484	-0.293750	
3015.574483	-0.289987	
3015.576484	-0.279451	
3015.578484	-0.270038	
3015.580484	-0.265313	
3015.582484	-0.262021	
3015.584484	-0.255176	
3015.586484	-0.245910	
3015.590482	-0.239729	
3015.594483	-0.231516	
3015.596484	-0.216121	
3015.598484	-0.212787	
3015.600484	-0.207830	
3015.602484	-0.199071	
3015.604483	-0.193336	
3015.606484	-0.190899	
3015.610483	-0.187600	
3015.612484	-0.175127	
3015.616484	-0.173648	
3015.618484	-0.165328	
3015.620484	-0.158943	
3015.622484	-0.157212	
3015.624484	-0.155525	
3015.626484	-0.150309	
3015.630482	-0.144636	
3015.632485	-0.140928	
3015.636487	-0.135878	
3015.638488	-0.124292	
3015.640488	-0.122079	
3015.642488	-0.117865	
3015.644488	-0.110877	
3015.646486	-0.105870	
3015.648488	-0.104234	
3015.652492	-0.101083	
3015.654492	-0.088919	
3015.656492	-0.086726	
3015.658492	-0.082931	
3015.660492	-0.076913	
3015.662492	-0.071519	
3015.664492	-0.069260	
3015.666492	-0.066871	
3015.668492	-0.060729	
3015.672492	-0.055628	
3015.676492	-0.050359	
3015.678492	-0.038111	
3015.680492	-0.034445	
3015.682492	-0.031983	
3015.684492	-0.025883	
3015.686492	-0.018604	
3015.688492	-0.013745	
3015.692496	-0.010916	
3015.694495	0.002100	
3015.696496	0.008534	
3015.698496	0.011301	
3015.700496	0.016088	
3015.702495	0.024183	
3015.704496	0.028596	
3015.706497	0.031805	
3015.708495	0.035910	
3015.712494	0.041065	
3015.716496	0.047621	
3015.718496	0.057183	
3015.720497	0.061358	
3015.722496	0.063737	
3015.724496	0.065127	
3015.726495	0.070336	
3015.728496	0.074846	
3015.732496	0.076541	
3015.736496	0.082443	
3015.738496	0.092554	
3015.740496	0.094664	
3015.742496	0.098756	
3015.744496	0.104734	
3015.746496	0.109640	
3015.748497	0.110696	
3015.752496	0.114746	
3015.756495	0.127385	
3015.758495	0.134341	
3015.760496	0.140611	
3015.762498	0.146608	
3015.764496	0.148852	
3015.766496	0.151922	
3015.768495	0.158119	
3015.770499	0.163670	
3015.774506	0.166262	
3015.776506	0.174838	
3015.778506	0.181446	
3015.780506	0.184507	
3015.782505	0.187156	
3015.786505	0.199838	
3015.788505	0.204159	
3015.792506	0.207326	
3015.796508	0.219796	
3015.798508	0.228886	
3015.800509	0.234766	
3015.802509	0.242030	
3015.804506	0.247585	
3015.806508	0.251892	
3015.808512	0.255560	
3015.812514	0.262063	
3015.814515	0.271153	
3015.816514	0.273713	
3015.818515	0.280300	
3015.820515	0.285672	
3015.822514	0.288145	
3015.824515	0.290420	
3015.826516	0.293833	
3015.828520	0.298675	
3015.830524	0.299602	
3015.834526	0.300025	
3015.836527	0.305817	
3015.838526	0.307907	
3015.840526	0.308265	
3015.842527	0.309980	
3015.844527	0.312348	
3015.846526	0.313394	
3015.850525	0.312937	
3015.852526	0.314801	
3015.854527	0.314921	
3015.856527	0.314563	
3015.858531	0.315070	
3015.860537	0.315794	
3015.862537	0.317265	
3015.864537	0.315235	
3015.878485	0.324074	
3015.880488	0.310664	
3015.884486	0.325732	
3015.886488	0.316937	
3015.888488	0.319409	
3015.890488	0.318037	
3015.892487	0.314890	
3015.896485	0.317712	
3015.898488	0.313584	
3015.900486	0.312615	
3015.904488	0.312872	
3015.906488	0.313320	
3015.908492	0.311510	
3015.910492	0.312286	
3015.912491	0.313613	
3015.916490	0.311059	
3015.918492	0.310145	
3015.920491	0.309924	
3015.924490	0.307238	
3015.926492	0.306989	
3015.928492	0.305766	
3015.930492	0.303349	
3015.932492	0.301686	
3015.936490	0.300801	
3015.938492	0.296083	
3015.940490	0.294191	
3015.944490	0.293040	
3015.946491	0.289543	
3015.948492	0.286898	
3015.950491	0.285245	
3015.952490	0.282513	
3015.954491	0.280299	
3015.956492	0.276870	
3015.958491	0.274000	
3015.960494	0.271114	
3015.964492	0.268371	
3015.966492	0.261410	
3015.968492	0.258179	
3015.970491	0.254765	
3015.972492	0.251526	
3015.974490	0.247489	
3015.976492	0.242514	
3015.980489	0.239127	
3015.984488	0.229297	
3015.986491	0.220024	
3015.988492	0.216307	
3015.990492	0.211790	
3015.992492	0.207114	
3015.994496	0.202145	
3015.996494	0.197982	
3015.998493	0.193615	
