num crossings	time (s)	maj axis (mm)	min axis (mm)	theta (rad )	slope (V/s)
5471	6517.061188	35.531995	1.031339	-1.522647	2.412267
5473	6519.143793	34.458322	0.620332	-1.487677	2.932731
5475	6521.224016	36.267575	1.982377	-1.493258	2.691390
5477	6523.308242	35.608076	0.973454	-1.520309	2.696026
5479	6525.390378	35.989772	1.022091	-1.520775	2.533204
5481	6527.472873	35.055030	0.512110	-1.485667	2.753294
5483	6529.550670	36.490333	1.135434	-1.521464	2.724127
5485	6531.633302	36.508450	1.014333	-1.518598	2.773210
5487	6533.711089	36.968184	1.034977	-1.520583	2.494480
5489	6535.792450	36.148341	0.369977	-1.481069	2.808207
5491	6537.869639	38.247348	2.104275	-1.487126	2.905314
5493	6539.948243	38.530069	2.086152	-1.490326	2.798754
5495	6542.028076	37.610175	1.086710	-1.519359	2.976848
5497	6544.106120	37.540386	1.095899	-1.518354	2.999834
5499	6546.183215	37.484811	0.515606	-1.481403	2.978721
5501	6548.264117	39.269819	2.095645	-1.488327	2.916431
5503	6550.341891	38.128998	1.161598	-1.516187	3.046876
5505	6552.422637	37.747248	0.966724	-1.490758	3.013051
5507	6554.501068	37.816786	0.679884	-1.518462	3.032802
5509	6556.580212	38.590724	1.182064	-1.516761	3.060986
5511	6558.660945	38.487832	1.033421	-1.493152	3.010524
5513	6560.739872	38.342766	0.617580	-1.519354	2.999116
5515	6562.820537	39.996323	1.253796	-1.519331	3.077679
5517	6564.900429	39.118811	1.214466	-1.516044	3.162351
5519	6566.980311	39.766947	1.418615	-1.514593	3.096527
5521	6569.058893	39.430367	1.208736	-1.516231	3.141599
5523	6571.139524	39.547928	1.226578	-1.516147	3.156930
5525	6573.217596	39.718497	1.222188	-1.515926	3.367019
5529	6577.376038	40.394659	1.429136	-1.514558	3.237949
5531	6579.453379	39.657821	1.290304	-1.511476	3.097227
5533	6581.531578	41.177642	1.266078	-1.517650	3.255960
5535	6583.611116	40.456289	0.865697	-1.485493	3.285532
5537	6585.688931	41.533025	1.270563	-1.516237	3.222363
5539	6587.766149	40.355702	1.072949	-1.486896	3.399243
5541	6589.846177	41.910124	1.240726	-1.516543	3.401176
5543	6591.924182	40.792964	1.280405	-1.514515	3.359449
5545	6594.001876	40.933340	1.294565	-1.514160	3.452739
5547	6596.082461	40.994043	1.307935	-1.513954	3.437668
5549	6598.160540	40.545282	0.431121	-1.474699	3.592246
5551	6600.241040	40.723644	1.183045	-1.512532	3.413510
5553	6602.319457	40.837553	1.311012	-1.510628	3.530801
5555	6604.399121	42.400317	1.343375	-1.515397	3.432977
5557	6606.478531	41.984840	1.364011	-1.512301	3.743439
5559	6608.556903	42.022372	1.327073	-1.512549	3.567960
5561	6610.637383	42.096897	1.332860	-1.512552	3.469921
5563	6612.715230	41.536188	1.492404	-1.504721	3.410497
5565	6614.793028	42.812969	2.588119	-1.481360	3.320488
5567	6616.872707	42.584999	1.450048	-1.515675	3.577900
5569	6618.950239	42.006936	0.269065	-1.467394	3.425433
5571	6621.027834	42.782923	1.459387	-1.515192	3.437555
5573	6623.105464	42.275541	1.464040	-1.509877	3.487066
5575	6625.183600	42.315086	0.244865	-1.464742	3.410770
5577	6627.260956	42.555288	1.508321	-1.510684	3.600265
5579	6629.337834	42.047820	1.574147	-1.503533	3.541487
5581	6631.414874	42.654792	1.506229	-1.509628	3.483736
5583	6633.491294	42.118986	1.551385	-1.504597	3.627047
5585	6635.568302	42.176619	1.382651	-1.507193	3.699247
5587	6637.647430	44.008826	1.485124	-1.511702	3.687500
5589	6639.724487	42.525148	1.557978	-1.504710	3.615441
5591	6641.801286	44.746465	2.697384	-1.475240	3.724064
5593	6643.878656	43.036895	1.587473	-1.507412	3.703536
5595	6645.957500	42.735890	1.594653	-1.504560	3.725569
5597	6648.035942	44.316740	1.500127	-1.512330	3.726384
5599	6650.113181	42.999602	1.128617	-1.478343	3.873063
5601	6652.191139	43.320058	1.612771	-1.507151	3.671855
5603	6654.270491	43.309171	1.625775	-1.506527	3.884838
5605	6656.347994	43.921725	1.704506	-1.505271	3.791431
5607	6658.425715	43.128583	1.681385	-1.503563	3.687087
5609	6660.503043	44.775053	2.933175	-1.471337	3.774041
5611	6662.582557	44.370228	2.808189	-1.472469	3.821764
5613	6664.659778	43.722580	1.634586	-1.506239	3.764127
5615	6666.736814	43.702299	1.668007	-1.505742	3.791248
5617	6668.813718	43.655938	1.152141	-1.474538	3.914459
5619	6670.892876	45.114749	2.807231	-1.474454	3.889172
5621	6672.970468	43.963397	1.654135	-1.505684	3.792836
5623	6675.047362	43.828320	1.143034	-1.474443	3.845228
5625	6677.124404	45.239184	1.540696	-1.509136	3.821732
5627	6679.201739	44.121606	0.479812	-1.465833	3.884571
5629	6681.280833	44.159467	1.682604	-1.504320	3.866988
5631	6683.358405	44.755475	1.657302	-1.503896	3.873057
5633	6685.435514	43.833111	1.798729	-1.500728	3.942739
5635	6687.513787	45.536707	1.586569	-1.507204	3.996234
5637	6689.592809	44.500848	-0.347427	-1.451229	3.934506
5639	6691.670401	44.424241	1.747439	-1.502691	3.782986
5641	6693.747965	44.402343	1.793201	-1.501691	3.926056
5643	6695.826963	44.046785	1.847449	-1.498482	3.838853
5645	6697.905494	45.487189	1.708681	-1.506386	4.044309
5647	6699.982738	44.602229	0.341311	-1.455761	3.978306
5649	6702.060779	44.351892	1.991516	-1.497859	3.845699
5651	6704.139455	45.656638	2.772243	-1.470950	3.975842
5653	6706.216856	44.859349	1.879530	-1.502063	3.878969
5655	6708.293581	44.759826	1.855629	-1.500241	3.982608
5657	6710.370818	44.794837	1.878589	-1.499960	3.735275
5659	6712.448492	45.263154	1.833077	-1.499444	3.949069
5661	6714.526304	44.857492	1.884166	-1.498972	3.941831
5663	6716.603560	44.699183	0.133274	-1.447467	4.002083
5665	6718.679972	45.915749	1.801009	-1.503357	3.960176
5667	6720.756542	44.571417	1.944872	-1.494766	3.991180
5669	6722.833160	46.196576	2.858671	-1.468543	3.886628
5671	6724.909700	46.268454	2.871091	-1.468229	3.947149
5673	6726.986547	45.162871	1.946748	-1.497384	4.057257
5675	6729.064426	44.781084	1.950057	-1.494881	4.160486
5677	6731.141735	45.337349	1.300648	-1.501597	4.191240
5679	6733.218909	46.465266	1.779125	-1.502451	4.188331
5681	6735.295686	44.432143	2.059742	-1.494038	4.017371
5683	6737.372477	45.271842	1.990069	-1.496386	3.972392
5685	6739.450098	45.225314	1.997720	-1.495758	4.068067
5687	6741.528315	45.142641	1.111813	-1.462616	3.947962
5689	6743.605639	46.471853	3.008322	-1.462733	4.133999
5691	6745.682654	46.576117	2.998919	-1.464339	3.977493
5693	6747.759786	46.646330	1.785927	-1.503100	3.903709
5695	6749.837466	45.163669	2.041382	-1.493990	4.151042
5697	6751.915749	45.576035	1.986193	-1.496622	3.953843
5699	6753.993014	46.120231	1.997542	-1.494930	4.076964
5701	6756.070023	45.437806	1.125974	-1.461096	4.136799
5703	6758.146865	46.748487	1.782721	-1.501803	4.092952
5705	6760.223599	45.533997	1.283800	-1.463611	4.186136
5707	6762.301719	45.860633	1.383008	-1.499894	4.059651
5709	6764.379448	45.223513	1.674952	-1.498054	4.070708
5711	6766.456220	45.769968	1.998555	-1.495649	4.035138
5713	6768.533465	45.110959	2.144864	-1.492495	4.077521
5715	6770.610115	45.822180	2.010267	-1.495034	4.009729
5717	6772.687666	45.581616	0.884214	-1.455117	4.331145
5719	6774.766367	47.207890	3.053554	-1.465163	4.160270
5721	6776.843830	47.066693	1.813287	-1.498056	4.318051
5723	6778.920941	45.566853	2.113375	-1.490777	4.051810
5725	6780.998148	46.100511	1.431498	-1.497211	4.302083
5727	6783.076742	45.991460	2.073814	-1.492945	4.183133
5729	6785.154394	45.812261	0.420848	-1.444520	4.156563
5731	6787.231583	45.613295	2.144944	-1.491002	4.203066
5733	6789.308596	47.082454	1.910687	-1.496908	4.209680
5735	6791.386502	46.559754	2.093610	-1.490508	4.064597
5737	6793.464539	45.935949	0.177193	-1.439070	4.258001
5739	6795.541845	45.779666	2.274858	-1.488795	4.315788
5741	6797.619201	46.250202	2.151725	-1.492405	4.165470
5743	6799.695878	46.105162	0.120493	-1.437414	4.175748
5745	6801.772730	47.110634	3.076271	-1.461452	4.203615
5747	6803.850096	47.124528	2.996485	-1.459237	4.154325
5749	6805.927957	45.835218	2.284012	-1.487885	4.150747
5751	6808.004840	45.912582	2.248261	-1.487676	4.191553
5753	6810.081276	47.313945	2.011994	-1.494699	4.245241
5755	6812.157991	46.192718	2.214034	-1.488019	4.254038
5757	6814.234703	46.050992	2.185018	-1.486450	4.203948
5759	6816.311409	47.429210	2.003801	-1.494076	4.215951
5761	6818.388480	46.104036	0.554621	-1.442827	4.051013
5763	6820.464847	46.315589	2.243567	-1.487724	4.150370
